"Distance [mm]","BZ []"
0,0.10915390264975
0.333012,0.106135956199249
0.666024,0.109125926492116
0.999036,0.0989029030780474
1.332048,0.0886649980583773
1.66506,0.0784123124770964
1.998072,0.0681449475240712
2.331084,0.0578630045340489
2.664096,0.0475665849856563
2.997108,-0.0606390706863193
3.33012,-0.19032566153836
3.663132,-0.250679676351841
3.996144,-0.306550094863325
4.329156,-0.362413531703683
4.662168,-0.418269435523347
4.99518,-0.474117255047096
5.328192,-0.529956439079497
5.661204,-0.585786436510349
5.994216,-0.641606696320115
6.327228,-0.671625565549759
6.66024,-0.705166663078549
6.993252,-0.738722005079118
7.326264,-0.742637182413819
7.659276,-0.779068568632294
7.992288,-0.815504926288952
8.3253,-0.851945895771652
8.658312,-0.887096274558317
8.991324,-0.876385214449571
9.324336,-0.868147525235416
9.657348,-0.804812391655809
9.99036,-0.741501629021101
10.323372,-0.678215862182958
10.656384,-0.614955715746349
10.989396,-0.694966740147695
11.322408,-0.651839235426466
11.65542,-0.608726495477793
11.988432,-0.565628945807015
12.321444,-0.535913830852466
12.654456,-0.494214134059231
12.987468,-0.487958404366152
13.32048,-0.482904466455615
13.653492,-0.477303375683318
13.986504,-0.471702369045308
14.319516,-0.466101501821261
14.652528,-0.460500829289474
14.98554,-0.454900406726324
15.318552,-0.444042991423834
15.651564,-0.442482212012142
15.984576,-0.440921047919194
16.317588,-0.439359514553048
16.6506,-0.437797627325407
16.983612,-0.436235401651469
17.316624,-0.432028812263408
17.649636,-0.431879282823004
17.982648,-0.431729806940173
18.31566,-0.431580386090182
18.648672,-0.432313122725669
18.981684,-0.433891540878001
19.314696,-0.43547102716826
19.647708,-0.437051566007554
19.98072,-0.438185064214195
20.313732,-0.439717591603826
20.646744,-0.441249941177456
20.979756,-0.442782097811412
21.312768,-0.444314046383928
21.64578,-0.445845771775289
21.978792,-0.459147627752994
22.311804,-0.462708589543495
22.644816,-0.466269399554974
22.977828,-0.490515104490703
23.31084,-0.502908158823899
23.643852,-0.515290454360278
23.976864,-0.527661868891583
24.309876,-0.540022280316945
24.642888,-0.552371566644096
24.9759,-0.568019503671104
25.308912,-0.597730485245813
25.641924,-0.681925298197446
25.974936,-0.766086408903534
26.307948,-0.721589839797719
26.64096,-0.802939808667377
26.973972,-0.886879732518993
27.306984,-0.857607555737887
27.639996,-0.865192745968098
27.973008,-0.964900085125737
28.30602,-0.942694424648788
28.639032,-0.922431886274305
28.972044,-0.90561448257595
29.305056,-0.888804234790931
29.638068,-0.881868350562969
29.97108,-0.865472087464623
30.304092,-0.856406503860347
30.637104,-0.84509871303799
30.970116,-0.833793473715833
31.303128,-0.822490897472026
31.63614,-0.819586487214164
31.969152,-0.806914316722489
32.302164,-0.794242645429945
32.635176,-0.781571598400813
32.968188,-0.768901300693211
33.3012,-0.761270740024205
33.634212,-0.750990032311165
33.967224,-0.740705678822823
34.300236,-0.730417781061593
34.633248,-0.721863290099261
34.96626,-0.712504227959735
35.299272,-0.695618728122032
35.632284,-0.654140202138849
35.965296,-0.612653740864471
36.298308,-0.571159753753521
36.63132,-0.487130560259848
36.964332,-0.416755322944386
37.297344,-0.346392241227232
37.630356,-0.276042009563599
37.963368,-0.215208330494672
38.29638,-0.15793914416951
38.629392,-0.100663176996076
38.962404,-0.043380994265045
39.295416,-0.0112580120110889
39.628428,0.0247339168485697
39.96144,0.0504361684145363
40.294452,0.0761430741120045
40.627464,0.098195245447759
40.960476,0.127442794715215
41.293488,0.156691267377111
41.6265,0.185940374762826
41.959512,0.181113327198669
42.292524,0.211001595471068
42.625536,0.240896191458606
42.958548,0.270796820113688
43.29156,0.304146759564155
43.624572,0.337100353098309
43.957584,0.364964475194959
44.290596,0.429596844744316
44.623608,0.495316794750776
44.95662,0.56201542399175
45.289632,0.641989923830659
45.622644,0.745268803556127
45.955656,0.848547943508447
46.288668,0.909387585832751
46.62168,0.861853131858203
46.954692,0.851804953776403
47.287704,0.827768691787193
47.620716,0.912082507777281
47.953728,0.859922626519346
48.28674,0.807769352718351
48.619752,0.755623201106062
48.952764,0.703484686343937
49.285776,0.694069920328457
49.618788,0.676121061877522
49.9518,0.658169678677347
50.284812,0.640215947900838
50.617824,0.63407502068745
50.950836,0.629191094016369
51.283848,0.624307208226371
51.61686,0.619423411519435
51.949872,0.608806872894243
52.282884,0.603950648586653
52.615896,0.598132133506147
52.948908,0.595983082475896
53.28192,0.583852504103151
53.614932,0.582733651601526
53.947944,0.581615003294626
54.280956,0.580496570223057
54.613968,0.579378363425303
54.94698,0.580468539151079
55.279992,0.580214034220426
55.613004,0.579959584330315
55.946016,0.57970519199206
56.279028,0.577858511587287
56.61204,0.581781992574366
56.945052,0.585706763110087
57.278064,0.589632784458547
57.611076,0.593560017871505
57.944088,0.597488424588749
58.2771,0.601417965838492
58.610112,0.605348602837749
58.943124,0.609280296792719
59.276136,0.617932602413673
59.609148,0.629932309048548
59.94216,0.643333605008956
60.275172,0.656730761714243
60.608184,0.670123646939878
60.941196,0.683512128503494
61.274208,0.696896074266183
61.60722,0.7102753521338
61.940232,0.771724241729165
62.273244,0.827792639086788
62.606256,0.883809444378379
62.939268,0.93977410474069
63.27228,0.995686067825107
63.605292,1.05466971467999
63.938304,1.11403302619948
64.271316,1.21890832901909
64.604328,1.22423568526629
64.93734,1.22961317095658
65.270352,1.23504073301633
65.603364,1.26521625868762
65.936376,1.24233204162642
66.269388,1.22071506411566
66.6024,1.20045612110743
66.935412,1.18020015392516
67.268424,1.15994736248708
67.601436,1.15368157927095
67.934448,1.14422963507722
68.26746,1.13701869249931
68.600472,1.12940616248086
68.933484,1.12179392351534
69.266496,1.1141820507325
69.599508,1.10657061925843
69.93252,1.09895970421489
70.265532,1.09134938071855
70.598544,1.08373972388023
70.931556,1.07613080880416
71.264568,1.06852271058726
71.59758,1.07001905754418
71.930592,1.06413705467366
72.263604,1.05762581617143
72.596616,1.0510270665302
72.929628,1.04452320369798
73.26264,1.03801741329378
73.595652,1.03150975952714
73.928664,1.02500030662597
74.261676,1.01848911883594
74.594688,1.00753683295164
74.9277,0.992579173849325
75.260712,0.977623025544579
75.593724,0.962668535648547
75.926736,0.949000632295003
76.259748,0.934235593960207
76.59276,0.919467815113458
76.925772,0.904697441506771
77.258784,0.857937456121843
77.591796,0.805530419514935
77.924808,0.753125057706169
78.25782,0.700721887915293
78.590832,0.648321427340445
78.923844,0.566673909990595
79.256856,0.463888922774155
79.589868,0.398362182081031
79.92288,0.332833645995077
80.255892,0.267303961256503
80.588904,0.201773774616832
80.921916,0.173867428396648
81.254928,0.134019665983483
81.58794,0.0941723201541363
81.920952,0.0535464548404467
82.253964,0.0124834691773098
82.586976,-0.028581916613167
82.919988,-0.0473796376522091
83.253,-0.0937628840703104
83.586012,-0.140148985484255
83.919024,-0.186537484081954
84.252036,-0.23292792202765
84.585048,-0.141298489033706
84.91806,-0.127538573001731
85.251072,-0.113772461284095
85.584084,-0.100000289746763
85.917096,-0.114313738467386
86.250108,-0.139762312562705
86.58312,-0.165207081742095
86.916132,-0.190647794875956
87.249144,-0.218036844676519
87.582156,-0.263514182964921
87.915168,-0.303343450499497
88.24818,-0.343173133520125
88.581192,-0.383002838923914
88.914204,-0.422832173607746
89.247216,-0.462660744472176
89.580228,-0.460259618491727
89.91324,-0.46834391438317
90.246252,-0.481946225384739
90.579264,-0.487144894208302
90.912276,-0.492342477053584
91.245288,-0.497538922622541
91.5783,-0.502734179628353
91.911312,-0.50792819679593
92.244324,-0.513035584283999
92.577336,-0.516941153487295
92.910348,-0.517213910990798
93.24336,-0.520700836965394
93.576372,-0.524187180762761
93.909384,-0.527672907974095
94.242396,-0.531157984196675
94.575408,-0.534642375034206
94.90842,-0.538126046097157
95.241432,-0.549833718866087
95.574444,-0.55495459820949
95.907456,-0.566912939471867
96.240468,-0.575256511384383
96.57348,-0.583602445453406
96.906492,-0.591950659307936
97.239504,-0.603035712083553
97.572516,-0.613287696654907
97.905528,-0.623531415073303
98.23854,-0.63392351505602
98.571552,-0.669163695781123
98.904564,-0.693748442993118
99.237576,-0.719662747554877
99.570588,-0.778281722706199
99.9036,-0.839055606395026
100.236612,-0.906176071538258
100.569624,-0.846792723912279
100.902636,-0.968146733224104
101.235648,-1.04564803912179
101.56866,-1.17331496732188
101.901672,-1.17569238727497
102.234684,-1.1963924527953
102.567696,-1.171919843016
102.900708,-1.1474544333262
103.23372,-1.12299646518962
103.566732,-1.09854617999651
103.899744,-1.07410381906134
104.232756,-1.06606507180565
104.565768,-1.06076673454641
104.89878,-1.05468519384417
105.231792,-1.04920800444353
105.564804,-1.04373209259941
105.897816,-1.03825751235684
106.230828,-1.03278431774773
106.56384,-1.02731256279029
106.896852,-1.02184230148854
107.229864,-1.01637358783175
107.562876,-1.01090647579391
107.895888,-1.00979838990103
108.2289,-1.00678695646453
108.561912,-1.00377650365533
108.894924,-1.00076706118538
109.227936,-0.997758658756656
109.560948,-0.997529627638167
109.89396,-0.995157422351192
110.226972,-0.992785285591108
110.559984,-0.990413240769948
110.892996,-0.988221122127892
111.226008,-0.985418818828847
111.55902,-0.982617214558679
111.892032,-0.979816336968092
112.225044,-0.977016213700616
112.558056,-0.974216872392338
112.891068,-0.971198256598029
113.22408,-0.967647591405575
113.557092,-0.964095712238951
113.890104,-0.960542654153769
114.223116,-0.956988452217279
114.556128,-0.952389036580178
114.88914,-0.945914432060028
115.222152,-0.939437633278201
115.555164,-0.934114288606983
115.888176,-0.9229750191906
116.221188,-0.91183337787947
116.5542,-0.904603161618442
116.887212,-0.884613322982016
117.220224,-0.864611015795462
117.553236,-0.844596437473471
117.886248,-0.824569785551854
118.21926,-0.817779337195819
118.552272,-0.793333277555303
118.885284,-0.76415188004815
119.218296,-0.715535361330534
119.551308,-0.666914165229275
119.88432,-0.618288771615948
120.217332,-0.569659660403558
120.550344,-0.447291676102737
120.883356,-0.376408771604491
121.216368,-0.304581490452631
121.54938,-0.232755825805069
121.882392,-0.160932486552109
122.215404,-0.106587217749913
122.548416,-0.0890151855384483
122.881428,-0.0588194871358129
123.21444,-0.0501564396448231
123.547452,-0.0414929826822518
123.880464,-0.0337606289622835
124.213476,-0.025536481862294
124.546488,-0.0173140158447222
124.8795,-0.00909331206198755
125.212512,-0.000874451649117812
125.545524,0.00734248427705339
125.878536,0.00512285622920556
126.211548,0.0196604629979465
126.54456,0.0314605167305174
126.877572,0.0432640822125469
127.210584,0.0615994720302255
127.543596,0.0794792110262431
127.876608,0.13518043986747
128.20962,0.175645019969311
128.542632,0.216103770000831
128.875644,0.256556290650504
129.208656,0.293036819209949
129.541668,0.331424435712474
129.87468,0.369818777600442
130.207692,0.452953343942066
130.540704,0.469660306355603
130.873716,0.493972356413505
131.206728,0.505846159232736
131.53974,0.517721021490526
131.872752,0.528459667997815
132.205764,0.538905271283842
132.538776,0.549347700550609
132.871788,0.55957833100984
133.2048,0.568702207737909
133.537812,0.577825268462947
133.870824,0.588024857707581
134.203836,0.60107944911023
134.536848,0.61588354989023
134.86986,0.631859693504473
135.202872,0.647830960654757
135.535884,0.663797193711123
135.868896,0.692702598487797
136.201908,0.727848642055893
136.53492,0.781453114625588
136.867932,0.705523199776737
137.200944,0.808411242191388
137.533956,0.911268622181178
137.866968,1.01055105826905
138.19998,1.0943099910164
138.532992,1.1966791369765
138.866004,1.17267751414703
139.199016,1.14867669450024
139.532028,1.12467691491452
139.86504,1.10067841225801
140.198052,1.07668142338625
140.531064,1.11240067309637
140.864076,1.10247165992569
141.197088,1.09154408898807
141.5301,1.08062071665798
141.863112,1.0697016507447
142.196124,1.05878699901499
142.529136,1.06165464047202
142.862148,1.05698843175409
143.19516,1.05255618399918
143.528172,1.04812549970814
143.861184,1.04590311136118
144.194196,1.04383710779706
144.527208,1.04177247571477
144.86022,1.03963159690757
145.193232,1.03745367598267
145.526244,1.03527697029147
145.859256,1.03310150131716
146.192268,1.03092729053076
146.52528,1.03113838945796
146.858292,1.03019606435101
147.191304,1.02925452631186
147.524316,1.02831378463311
147.857328,1.0273738485995
148.19034,1.02669761949938
148.523352,1.02614665016445
148.856364,1.02572487184546
149.189376,1.02529208602134
149.522388,1.02487367482145
149.8554,1.02445597013369
150.188412,1.02403897608063
150.521424,1.02362269677784
150.854436,1.02320713633383
151.187448,1.02234020590332
151.52046,1.02253997963103
151.853472,1.02274038398283
152.186484,1.02294141698082
152.519496,1.02314307664087
152.852508,1.0233453609727
153.18552,1.02354826797982
153.518532,1.02370979255346
153.851544,1.02122600591739
154.184556,1.02430418921978
154.517568,1.02711793150373
154.85058,1.03010190374205
155.183592,1.03308951348434
155.516604,1.0360807312441
155.849616,1.03907552749921
156.182628,1.0351013223757
156.51564,1.01287407349173
156.848652,1.01877692710221
157.181664,1.02468152981114
157.514676,0.965582709965036
157.847688,0.894813781534827
158.1807,0.824059906133333
158.513712,0.7118007580521
158.846724,0.8093521933349
159.179736,0.755697281962036
159.512748,0.702019743896909
159.84576,0.648320108915155
160.178772,0.609712650758088
160.511784,0.544182061609716
160.844796,0.509693502396525
161.177808,0.475203086267048
161.51082,0.440711153627765
161.843832,0.406218044900131
162.176844,0.36497944709283
162.509856,0.318123494204439
162.842868,0.27126854906084
163.17588,0.224415074101416
163.508892,0.176317123925309
163.841904,0.113334266435852
164.174916,0.0958502477731719
164.507928,0.0783683652191072
164.84094,0.0608887913127819
165.173952,0.04341169857053
165.506964,0.0259372594842046
165.839976,0.0261665579491032
166.172988,0.0149383520853052
166.506,0.00371177129474571
166.839012,-0.00751307362075519
167.172024,-0.0187360718765099
167.505036,-0.0304288567588329
167.838048,-0.0423627710310953
168.17106,-0.054297575394664
168.504072,-0.0662331520578401
168.837084,-0.0973352826020872
169.170096,-0.133142632128739
169.503108,-0.168947494928141
169.83612,-0.191431656868453
170.169132,-0.235928473881601
170.502144,-0.282040322994899
170.835156,-0.386319156972664
171.168168,-0.421406137094921
171.50118,-0.456487629854416
171.834192,-0.496364090457177
172.167204,-0.526365579779932
172.500216,-0.556359532710285
172.833228,-0.586345653220028
173.16624,-0.657723194779433
173.499252,-0.689948375525286
173.832264,-0.726074973150968
174.165276,-0.762190988008902
174.498288,-0.810564123768225
174.8313,-0.912893439641478
175.164312,-1.00849012969265
175.497324,-1.00748938219476
175.830336,-1.07341745880472
176.163348,-1.06137892614825
176.49636,-1.04935580111446
176.829372,-1.03734820236675
177.162384,-1.02535624841527
177.495396,-1.01338005761577
177.828408,-1.0014197481684
178.16142,-1.02637891556251
178.494432,-1.02522717832753
178.827444,-1.02463806489053
179.160456,-1.02405056554878
179.493468,-1.02544553370751
179.82648,-1.02463664515668
180.159492,-1.02382864428904
180.492504,-1.02302153907924
180.825516,-1.02221533749306
181.158528,-1.0214100474874
181.49154,-1.02060567701015
181.824552,-1.02321054557905
182.157564,-1.02350154530482
182.490576,-1.02379323107341
182.823588,-1.02403440726816
183.1566,-1.02449347558864
183.489612,-1.02495325296274
183.822624,-1.02541373485266
184.155636,-1.02587491671361
184.488648,-1.02633679399392
184.82166,-1.02679936213504
185.154672,-1.02749054035812
185.487684,-1.02826146228165
185.820696,-1.02903300258577
186.153708,-1.02980515365568
186.48672,-1.03057790787058
186.819732,-1.03194359535047
187.152744,-1.03351092833353
187.485756,-1.03507952352105
187.818768,-1.03664936543162
188.15178,-1.03822043857155
188.484792,-1.04073493979258
188.817804,-1.04411214125205
189.150816,-1.04749048171531
189.483828,-1.05086992783949
189.81684,-1.05425044627083
190.149852,-1.05763200364496
190.482864,-1.06101456658729
190.815876,-1.06439810171329
191.148888,-1.06778257562882
191.4819,-1.0711679549305
191.814912,-1.08510656289516
192.147924,-1.09196787711876
192.480936,-1.10872532096467
192.813948,-1.12548902613843
193.14696,-1.14225882718904
193.479972,-1.15903455860533
193.812984,-1.1758160548176
194.145996,-1.17800738655125
194.479008,-1.07781549861068
194.81202,-1.04701764184119
195.145032,-0.982866874865616
195.478044,-0.913749377832475
195.811056,-0.802405800742131
196.144068,-0.81822715922785
196.47708,-0.782175171077672
196.810092,-0.746111167813801
197.143104,-0.679751780122164
197.476116,-0.66249107706861
197.809128,-0.645231014202621
198.14214,-0.62797176187405
198.475152,-0.616793193614055
198.808164,-0.605356806124032
199.141176,-0.593916207099731
199.474188,-0.582471509455247
199.8072,-0.568047363682891
200.140212,-0.558605519320118
200.473224,-0.549163876883764
200.806236,-0.536419218201507
201.139248,-0.521814554340267
201.47226,-0.50720598909203
201.805272,-0.492593666637438
202.138284,-0.477977731194214
202.471296,-0.46335832701574
202.804308,-0.448735598389634
203.13732,-0.434804963846091
203.470332,-0.355082440234824
203.803344,-0.312351792589703
204.136356,-0.269616645823031
204.469368,-0.193393060527604
204.80238,-0.150167223948812
205.135392,-0.112632513373193
205.468404,-0.0815858209003712
205.801416,-0.0740519425083031
206.134428,-0.0592268146600237
206.46744,-0.0443968499643795
206.800452,-0.029562194787138
207.133464,-0.0147229955403536
207.466476,0.000120601319066222
207.799488,-0.000449813857617947
208.1325,0.00867458414007755
208.465512,0.00277159987725778
208.798524,0.017228787445922
209.131536,0.0316821829074511
209.464548,0.0461316436126661
209.79756,0.0605770269512221
210.130572,0.0750181903530208
210.463584,0.0913036478236738
210.796596,0.0904570369643284
211.129608,0.13434487760655
211.46262,0.21431601828102
211.795632,0.294283335666763
212.128644,0.374246040518633
212.461656,0.451561657505541
212.794668,0.531710937996518
213.12768,0.635326585804561
213.460692,0.670422983501878
213.793704,0.705526162785039
214.126716,0.740635777199828
214.459728,0.775751480228528
214.79274,0.814618213221621
215.125752,0.85668510791118
215.458764,0.898737986600029
215.791776,0.879981341544531
216.124788,0.888542380897452
216.4578,0.898902793726911
216.790812,0.909260069771649
217.123824,0.91961410680953
217.456836,0.929964802650391
217.789848,0.940312055137042
218.12286,0.949720215314493
218.455872,0.952205848307473
218.788884,0.956041523170455
219.121896,0.959877022621594
219.454908,0.963712308806059
219.78792,0.967547343871123
220.120932,0.971382089966538
220.453944,0.97521650924491
220.786956,0.977819040776574
221.119968,0.980263680296981
221.45298,0.982397018186716
221.785992,0.984943375198111
222.119004,0.987490066446442
222.452016,0.990037066796895
222.785028,0.992584351111606
223.11804,0.995131894249906
223.451052,0.997320810141525
223.784064,0.999594692074741
224.117076,0.998223368407495
224.450088,1.00192896597804
224.7831,1.00563589274094
225.116112,1.0093441121103
225.449124,1.01305358748751
225.782136,1.01676428226154
226.115148,1.01992401320919
226.44816,1.02572823521566
226.781172,1.03153288699996
227.114184,1.0373379112725
227.447196,1.04235503309091
227.780208,1.0488948139379
228.11322,1.05543792127848
228.446232,1.06316080206453
228.779244,1.07184254257806
229.112256,1.08052671419593
229.445268,1.10013671132168
229.77828,1.11976526056777
230.111292,1.13940174045307
230.444304,1.15904595717344
230.777316,1.14678741345063
231.110328,1.15555130304855
231.44334,1.164307253188
231.776352,1.17305517745129
232.109364,1.00688972679053
232.442376,0.91661981738361
232.775388,0.808404677251411
